tempo		K			U				eTot				temp		P
0	1.0	1.80598135333	2.80598135333	0.666666666667	1.06817142245
0.001	1.00013665255	1.80699279023	2.80712944278	0.666757768369	1.06884227193
0.002	1.00027437686	1.80800233295	2.80827670981	0.666849584572	1.06951320304
0.003	1.00041422692	1.80843639972	2.80885062664	0.666942817949	1.06985319383
0.004	1.00055699528	1.80829363384	2.80885062911	0.66703799685	1.06986189638
0.005	1.00070279977	1.80872105114	2.80942385091	0.667135199845	1.07020206258
0.006	1.00085168226	1.80857217118	2.80942385344	0.667234454837	1.07021126282
0.007	1.00100355466	1.8078461592	2.80884971386	0.667335703106	1.06988909586
0.008	1.00115738918	1.80769245718	2.80884984636	0.667438259453	1.06989904602
0.009	1.00131394461	1.80753590433	2.80884984894	0.66754262974	1.0699092679
0.01	1.0014741961	1.80680175224	2.80827594834	0.667649464069	1.06958817792
0.011	1.00163765484	1.80606431815	2.80770197299	0.66775843656	1.06926734669
0.012	1.0018038026	1.80532379437	2.80712759696	0.66786920173	1.06894670156
0.013	1.00197300766	1.80458067352	2.80655368119	0.667982005108	1.06862660265
0.014	1.00214533529	1.80326060096	2.80540593626	0.668096890197	1.06797534385
0.015	1.00232102363	1.80308491527	2.8054059389	0.668214015754	1.06798744201
0.016	1.00249979681	1.80175844384	2.80425824064	0.668333197871	1.06733689036
0.017	1.002681538	1.8010029284	2.8036844664	0.668454358664	1.06701827246
0.018	1.00286657247	1.80139187478	2.80425844726	0.668577714983	1.06736305741
0.019	1.0030550888	1.80120336112	2.80425844992	0.668703392536	1.06737662467
0.02	1.00324717366	1.8004375205	2.80368469416	0.668831449109	1.0670590754
0.021	1.00344286347	1.80024183336	2.80368469683	0.668961908982	1.06707334701
0.022	1.00364227574	1.7994681464	2.80311042214	0.669094850491	1.06675626624
0.023	1.00384468328	1.79984012874	2.80368481202	0.669229788855	1.06710309783
0.024	1.00405068648	1.79963412822	2.8036848147	0.669367124319	1.06711856401
0.025	1.00426108795	1.79942372943	2.80368481738	0.669507391967	1.06713432889
0.026	1.00447529536	1.79978319232	2.80425848768	0.669650196905	1.06748190155
0.027	1.00469281939	1.80013936208	2.80483218148	0.669795212928	1.06782994097
0.028	1.00491432877	1.79991785539	2.80483218416	0.669942885848	1.06784692864
0.029	1.00513967543	1.79969270484	2.80483238027	0.670093116954	1.06786441709
0.03	1.00536889765	1.79946348531	2.80483238296	0.670245931764	1.06788223461
0.031	1.00560274333	1.79922964231	2.80483238564	0.670401828889	1.0679003862
0.032	1.00584007322	1.80014066162	2.80598073484	0.670560048814	1.06858233729
0.033	1.00607945231	1.79990039261	2.80597984492	0.670719634871	1.06860124359
0.034	1.00632208402	1.79965776358	2.8059798476	0.670881389348	1.0686210951
0.035	1.00656894884	1.79998516569	2.80655411452	0.67104596589	1.06897306618
0.036	1.00682007929	1.79973403792	2.80655411721	0.671213386193	1.06899376657
0.037	1.00707558758	1.80005201149	2.80712759907	0.671383725056	1.0693462271
0.038	1.00733549764	1.79979210412	2.80712760176	0.671556998425	1.06936777775
0.039	1.00760027836	1.79952732609	2.80712760445	0.671733518906	1.0693897064
0.04	1.00786967824	1.79868395607	2.80655363431	0.671913118829	1.06908049008
0.041	1.00814372875	1.79840990825	2.806553637	0.672095819165	1.06910326219
0.042	1.00842180975	1.79755888629	2.80598069605	0.672281206501	1.06879545473
0.043	1.00870395728	1.79727674145	2.80598069873	0.672469304856	1.06881925596
0.044	1.0089902223	1.79756389827	2.80655412057	0.6726601482	1.06917488682
0.045	1.00928063238	1.79727349087	2.80655412325	0.67285375492	1.06919973261
0.046	1.00957568999	1.79640450461	2.8059801946	0.673050459994	1.06889350371
0.047	1.00987376453	1.79668057247	2.806554337	0.673249176355	1.06925114452
0.048	1.01017487917	1.79695299974	2.80712787891	0.673449919445	1.06960919792
0.049	1.01048053691	1.79607372638	2.80655426329	0.673653691273	1.06930499269
0.05	1.01078926606	1.79633784254	2.8071271086	0.673859510704	1.06966393474
0.051	1.01110048208	1.79602653703	2.80712701911	0.674066988054	1.06969257126
0.052	1.01141614906	1.79571087267	2.80712702173	0.674277432706	1.06972179282
0.053	1.01173667694	1.79481621348	2.80655289042	0.674491117959	1.06941987553
0.054	1.01205910986	1.79506740791	2.80712651777	0.674706073239	1.06978187933
0.055	1.01238387068	1.79474264965	2.80712652033	0.674922580453	1.06981331153
0.056	1.01271289311	1.79384084986	2.80655374297	0.675141928742	1.0695143246
0.057	1.01304502913	1.79178677552	2.80483180466	0.675363352756	1.06855240085
0.058	1.01338138295	1.79145042418	2.80483180713	0.675587588635	1.06858579802
0.059	1.01372258489	1.79168345448	2.80540603937	0.675815056593	1.06895142357
0.06	1.01406810912	1.79076428513	2.80483239425	0.676045406083	1.06865457183
0.061	1.01441745522	1.78926775567	2.80368521088	0.676278303477	1.06802704508
0.062	1.0147711983	1.78891401489	2.80368521319	0.676514132198	1.06806292153
0.063	1.01512852884	1.78970317005	2.80483169888	0.676752352557	1.06876198673
0.064	1.01548878821	1.78991608251	2.80540487072	0.676992525474	1.06913061004
0.065	1.01585350134	1.78897768843	2.80483118977	0.677235667562	1.06883723944
0.066	1.01622210647	1.78975717618	2.80597928265	0.677481404313	1.0695392011
0.067	1.01659502083	1.78938426379	2.80597928462	0.677730013889	1.06957862538
0.068	1.01697349369	1.78900579283	2.80597928651	0.677982329124	1.06961855454
0.069	1.01735596205	1.78919737595	2.806553338	0.678237308036	1.06999078863
0.07	1.01774117501	1.78709123912	2.80483241413	0.678494116676	1.06903805371
0.071	1.01812945134	1.78784983616	2.8059792875	0.678752967559	1.0697430187
0.072	1.01852205877	1.78745723023	2.80597928901	0.679014705849	1.0697860201
0.073	1.01891937622	1.78706007694	2.80597945315	0.679279584145	1.06982972261
0.074	1.01931776359	1.78608822525	2.80540598884	0.679545175728	1.0695431053
0.075	1.01971811217	1.78568787782	2.80540598999	0.679812074783	1.06958879463
0.076	1.02012407142	1.78528191959	2.80540599101	0.680082714277	1.06963500187
0.077	1.02053470608	1.78429729412	2.8048320002	0.680356470718	1.06935027266
0.078	1.02094835378	1.78388292214	2.80483127592	0.680632235856	1.0693976305
0.079	1.02136594665	1.78346532983	2.80483127648	0.680910631103	1.06944604965
0.08	1.02178779725	1.78246960286	2.80425740011	0.681191864832	1.06916363695
0.081	1.02221298045	1.78147146935	2.8036844498	0.681475320299	1.06888245196
0.082	1.02264229528	1.78161607705	2.80425837234	0.681761530189	1.06926460252
0.083	1.02307637879	1.78175592876	2.80483230755	0.682050919196	1.06964737563
0.084	1.02351488872	1.7818911934	2.80540608212	0.682343259148	1.07003073125
0.085	1.02395808134	1.78144800028	2.80540608162	0.682638720895	1.07008323381
0.086	1.0244064072	1.78157379117	2.80598019837	0.682937604799	1.07046792494
0.087	1.02485933713	1.78169451588	2.80655385301	0.683239558086	1.07085302249
0.088	1.02531724759	1.78123660431	2.8065538519	0.683544831726	1.07090726568
0.089	1.02577776552	1.77848139192	2.80425915744	0.683851843679	1.06963665807
0.09	1.02623997715	1.77801861117	2.80425858832	0.684159984767	1.06969246051
0.091	1.02670624714	1.77812623643	2.80483248357	0.684470831425	1.07008071112
0.092	1.02717633141	1.77765585527	2.80483218669	0.684784220942	1.07013797553
0.093	1.0276494573	1.77775656705	2.80540602435	0.685099638201	1.07052764324
0.094	1.02812510266	1.77842767689	2.80655277955	0.685416735105	1.07124920941
0.095	1.02860374613	1.77852218584	2.80712593196	0.685735830752	1.0716401268
0.096	1.0290866866	1.77861313294	2.80769981954	0.686057791069	1.07203195009
0.097	1.02957355819	1.77812591076	2.80769946895	0.686382372125	1.07209268745
0.098	1.03006453994	1.77763492569	2.80769946563	0.68670969329	1.07215414612
0.099	1.03056011137	1.77656568748	2.80712579886	0.68704007425	1.0718846687
0.1	1.03105920369	1.77606562937	2.80712483306	0.68737280246	1.0719467751
0.101	1.03156162377	1.77613732749	2.80769895127	0.687707749181	1.07234156659
0.102	1.0320655294	1.77563465683	2.80770018624	0.688043686268	1.07240611889
0.103	1.03257143391	1.77512874792	2.80770018182	0.688380955939	1.07247084274
0.104	1.03308195752	1.77404439403	2.80712635156	0.688721305014	1.07220446121
0.105	1.03359562388	1.77238346349	2.80597908737	0.68906374925	1.07160731934
0.106	1.03411245436	1.77186662799	2.80597908235	0.689408302907	1.07167352289
0.107	1.03463215304	1.77077259128	2.80540474432	0.689754768693	1.07140854477
0.108	1.03515464001	1.7702500989	2.80540473892	0.690103093342	1.07147583098
0.109	1.03568145428	1.76972327906	2.80540473334	0.69045430285	1.07154343527
0.11	1.03621211513	1.76861881553	2.80483093066	0.690808076752	1.07127991074
0.111	1.03674584134	1.76751085741	2.80425669875	0.691163894224	1.07101661744
0.112	1.03728101723	1.76697638424	2.80425740146	0.691520678151	1.07108593601
0.113	1.03781698881	1.76758780586	2.80540479467	0.691877992539	1.07181846858
0.114	1.03835558285	1.76704920544	2.80540478829	0.692237055236	1.07188852966
0.115	1.0388969415	1.76650798832	2.80540492982	0.692597961001	1.07195901959
0.116	1.03944063593	1.7665382663	2.80597890223	0.692960423951	1.07236139504
0.117	1.03998560365	1.76542063701	2.80540624066	0.693323735767	1.07210173711
0.118	1.04053105471	1.76372729446	2.80425834917	0.693687369806	1.07151050131
0.119	1.04107887214	1.76317947008	2.80425834221	0.694052581424	1.07158266405
0.12	1.04162960163	1.76320247918	2.80483208081	0.69441973442	1.07198648744
0.121	1.04218291326	1.76207554389	2.80425845715	0.694788608838	1.07172766333
0.122	1.04273848062	1.76209408297	2.80483256359	0.695158987077	1.07213209249
0.123	1.04329641991	1.76153613642	2.80483255634	0.69553094661	1.07220507233
0.124	1.04385537007	1.75982985859	2.80368522866	0.695903580045	1.07161553203
0.125	1.04441467463	1.75869725721	2.80311193184	0.696276449751	1.07135795602
0.126	1.04497495435	1.75756206682	2.80253702117	0.696649969564	1.07109990444
0.127	1.04553665812	1.75700035566	2.80253701377	0.697024438744	1.07117402308
0.128	1.0460998205	1.75643686508	2.80253668558	0.697399880333	1.07124813895
0.129	1.04666394857	1.7564464513	2.80311039987	0.697775965715	1.07165402707
0.13	1.04722843283	1.75473459314	2.80196302596	0.698152288551	1.07106582632
0.131	1.04779280715	1.75474402367	2.80253683083	0.698528538102	1.07147222876
0.132	1.04835821161	1.75360481248	2.80196302408	0.698905474405	1.07121573322
0.133	1.04892460374	1.75361204407	2.8025366478	0.699283069158	1.07162218015
0.134	1.04949136268	1.75361869787	2.80311006055	0.699660908453	1.07202862864
0.135	1.05005842309	1.75362590378	2.80368432687	0.700038948729	1.07243554496
0.136	1.05062623814	1.75363179385	2.80425803198	0.70041749209	1.07284219246
0.137	1.05119381146	1.75363757264	2.8048313841	0.70079587431	1.07324876208
0.138	1.05176121132	1.75307016568	2.804831377	0.701174140882	1.07332409385
0.139	1.05232984161	1.75250152836	2.80483136997	0.701553227742	1.07339926399
0.14	1.05289959907	1.75193176395	2.80483136302	0.701933066046	1.07347425655
0.141	1.05346929368	1.75193572821	2.80540502188	0.702312862451	1.0738806156
0.142	1.05403881919	1.75136619591	2.8054050151	0.702692546127	1.07395547935
0.143	1.05460915882	1.75079584959	2.80540500841	0.703072772549	1.07403011914
0.144	1.05517855807	1.74907953125	2.80425808932	0.703452372047	1.07344207456
0.145	1.05574545143	1.74736557467	2.8031110261	0.703830300952	1.07285410316
0.146	1.05631075678	1.74794746223	2.80425821901	0.704207171188	1.07359163531
0.147	1.05687535155	1.74680952885	2.8036848804	0.704583567701	1.07333497308
0.148	1.05743979117	1.74624508307	2.80368487425	0.704959860783	1.07340934606
0.149	1.05800448207	1.74568038613	2.80368486821	0.705336321383	1.07348340766
0.15	1.05856867346	1.74569061625	2.80425928971	0.705712448975	1.07388899992
0.151	1.05913133522	1.74570111249	2.80483244771	0.706087556811	1.07429387455
0.152	1.0596930368	1.74513940523	2.80483244203	0.706462024532	1.07436732284
0.153	1.06025379798	1.74572606319	2.80597986117	0.706835865318	1.0751034
0.154	1.06081264107	1.74574160957	2.80655425064	0.707208427378	1.07550818551
0.155	1.06137031329	1.74518393204	2.80655424533	0.70758020886	1.07558093561
0.156	1.06192762581	1.74462661434	2.80655424015	0.707951750541	1.07565328395
0.157	1.06248450039	1.74406973471	2.8065542351	0.708323000259	1.07572521872
0.158	1.06304036424	1.7429399154	2.80598027964	0.708693576161	1.07546523703
0.159	1.06359383514	1.74410877544	2.80770261058	0.709062556761	1.07653148335
0.16	1.06414469133	1.74298412449	2.80712881582	0.709429794218	1.0762711636
0.161	1.06469417006	1.74243464122	2.80712881128	0.70979611337	1.07634194682
0.162	1.06523980753	1.74303646888	2.80827627641	0.710159871689	1.07707555306
0.163	1.06578070437	1.74249602283	2.80827672721	0.710520469583	1.07714646639
0.164	1.06631983192	1.74195689113	2.80827672305	0.710879887946	1.07721678617
0.165	1.06685680027	1.74142085133	2.8082776516	0.711237866845	1.077287181
0.166	1.06739103817	1.74031296228	2.80770400045	0.711594025445	1.07702543468
0.167	1.06792290173	1.73920776299	2.80713066472	0.711948601152	1.07676347343
0.168	1.06845154111	1.73753089273	2.80598243384	0.712301027408	1.07616925568
0.169	1.06897703882	1.73872663803	2.80770367684	0.712651359211	1.07723238444
0.17	1.06950049022	1.73877701937	2.8082775096	0.713000326815	1.07763218336
0.171	1.07002089528	1.73997874379	2.80999963907	0.713347263521	1.07869493549
0.172	1.07053741933	1.73888877525	2.80942619458	0.713691612887	1.07843133107
0.173	1.07105156747	1.73837462403	2.80942619149	0.714034378311	1.07849859757
0.174	1.07156391092	1.73728868339	2.80885259431	0.714375940615	1.07823393955
0.175	1.07207148594	1.73620789137	2.8082793773	0.714714323957	1.07796928166
0.176	1.07257455674	1.73570481781	2.80827937455	0.71504970449	1.07803561912
0.177	1.07307493055	1.73462994911	2.80770487966	0.715383287035	1.07776969437
0.178	1.07357208675	1.73470694408	2.80827903083	0.715714724499	1.07816681405
0.179	1.07406610489	1.73363901725	2.80770512214	0.716044069928	1.07790032691
0.18	1.07455638819	1.73372254171	2.80827892989	0.716370925458	1.07829650039
0.181	1.07504384098	1.73323508665	2.80827892763	0.716695893988	1.07836069727
0.182	1.07552865672	1.73217614861	2.80770480533	0.717019104482	1.07809274063
0.183	1.0760104938	1.7322679551	2.8082784489	0.717340329201	1.07848734136
0.184	1.07648960283	1.73121461719	2.80770422002	0.717659735222	1.07821831848
0.185	1.07696381457	1.73188731726	2.80885113183	0.717975876381	1.07894336508
0.186	1.07743302188	1.73084387028	2.80827689216	0.718288681252	1.07867380979
0.187	1.07789871993	1.7303779875	2.80827670743	0.71859914662	1.07873539777
0.188	1.07836036711	1.7304898191	2.80885018621	0.718906911407	1.07912800893
0.189	1.07881884095	1.73003134367	2.80885018462	0.719212560635	1.07918876466
0.19	1.079274391	1.73014939287	2.80942378388	0.71951626067	1.07958035712
0.191	1.07972446644	1.73027366351	2.80999812996	0.719816310963	1.07997204871
0.192	1.08016873738	1.72925530184	2.80942403921	0.720112491585	1.07970017627
0.193	1.08060906737	1.72824058731	2.80884965467	0.72040604491	1.07942771769
0.194	1.08104547734	1.72895242737	2.80999790471	0.720696984893	1.08014982
0.195	1.0814785664	1.72851933712	2.80999790352	0.720985710936	1.08020811187
0.196	1.08190937473	1.72808852766	2.80999790239	0.721272916487	1.08026572509
0.197	1.08233749418	1.72708662069	2.80942411487	0.721558329451	1.079991227
0.198	1.08276083114	1.72609029735	2.80885112849	0.721840554092	1.07971672166
0.199	1.08317974277	1.72567138476	2.80885112753	0.722119828512	1.07977290075
0.2	1.08359367819	1.72525750897	2.80885118716	0.722395785458	1.07982874606
0.201	1.08400201256	1.72427542185	2.80827743441	0.722668008376	1.07955281274
0.202	1.08440619617	1.72387158553	2.80827778171	0.722937464115	1.07960802671
0.203	1.08480681746	1.72347096349	2.80827778095	0.723204544972	1.07966252802
0.204	1.08520419094	1.72364666995	2.80885086089	0.723469460626	1.08004758745
0.205	1.08559674	1.72210582139	2.80770256139	0.723731159998	1.07943780006
0.206	1.08598525144	1.72171730931	2.80770256075	0.723990167628	1.07949079875
0.207	1.08637014089	1.72190693685	2.80827707773	0.724246760591	1.07987505166
0.208	1.08675138964	1.72152568754	2.80827707717	0.724500926424	1.07992692883
0.209	1.08712945525	1.7217216757	2.80885113095	0.724752970167	1.08030978511
0.21	1.08750340889	1.72020034247	2.80770375136	0.725002272595	1.07969766361
0.211	1.08787389763	1.71982985328	2.80770375091	0.725249265086	1.07974781752
0.212	1.088240011	1.71946256885	2.80770257985	0.72549334067	1.07979695327
0.213	1.08860173681	1.71910084266	2.80770257947	0.725734491205	1.07984614459
0.214	1.08896037424	1.71988981649	2.80885019073	0.725973582829	1.08055766301
0.215	1.08931591658	1.71953427382	2.8088501904	0.726210611055	1.08060555786
0.216	1.08966861886	1.71860759844	2.8082762173	0.726445745904	1.08032120561
0.217	1.09001783545	1.71883202405	2.8088498595	0.726678556965	1.0806992256
0.218	1.09036361549	1.71906008561	2.8094237011	0.726909076995	1.0810767244
0.219	1.09070530457	1.71929285248	2.80999815705	0.727136869716	1.08145397273
0.22	1.0910409564	1.72010487966	2.81114583607	0.727360637601	1.0821621503
0.221	1.09137110291	1.71920095134	2.81057205425	0.727580735272	1.08187548527
0.222	1.09169552621	1.71887611469	2.8105716409	0.727797017471	1.08191977198
0.223	1.09201493809	1.71855670265	2.81057164074	0.728009958726	1.08196382162
0.224	1.09232958265	1.71996230554	2.81229188819	0.728219721769	1.08300133763
0.225	1.09263944595	1.71965244212	2.81229188807	0.728426297299	1.08304446925
0.226	1.09294639051	1.71877161691	2.81171800742	0.728630927004	1.08275538403
0.227	1.09324940595	1.71732110086	2.81057050681	0.728832937302	1.08213432761
0.228	1.0935476754	1.71644846059	2.80999613599	0.729031783599	1.08184398127
0.229	1.09384116974	1.71672890718	2.81057007692	0.729227446491	1.08221646737
0.23	1.09412923539	1.71644221577	2.81057145116	0.729419490261	1.08225765214
0.231	1.0944125192	1.71673309112	2.81114561032	0.729608346132	1.08262939028
0.232	1.09469183355	1.71702816773	2.81172000129	0.729794555702	1.08300066641
0.233	1.09496754767	1.71675245361	2.81172000128	0.729978365117	1.08303957064
0.234	1.09524048901	1.71647951229	2.81172000129	0.730160326004	1.08307775439
0.235	1.09551065418	1.71620934713	2.81172000132	0.730340436121	1.0831152176
0.236	1.09577771994	1.71651606333	2.81229378328	0.730518479961	1.08348347692
0.237	1.09603993596	1.71625442654	2.8122943625	0.730693290642	1.08352006494
0.238	1.09629673658	1.71542330273	2.81172003931	0.730864491053	1.08322427177
0.239	1.09654986647	1.7151701729	2.81172003937	0.731033244314	1.08325959392
0.24	1.09679922108	1.71434699804	2.81114621912	0.731199480719	1.08296282563
0.241	1.09704254421	1.71467816747	2.81172071168	0.731361696139	1.08332904163
0.242	1.09727972857	1.71444120273	2.8117209313	0.731519819049	1.08336325676
0.243	1.09751261575	1.71478205195	2.8122946677	0.731675077164	1.08372829626
0.244	1.09774148418	1.71340523653	2.81114672071	0.731827656118	1.08309818609
0.245	1.09796674771	1.71317997311	2.81114672082	0.731977831806	1.08313058761
0.246	1.09818786005	1.71181229584	2.81000015589	0.732125240035	1.082499947
0.247	1.09840439505	1.71159552876	2.80999992381	0.732269596698	1.08253120039
0.248	1.0986177098	1.71138221415	2.80999992395	0.732411806533	1.08256189584
0.249	1.09882779198	1.7105982464	2.80942603838	0.732551861322	1.08226040446
0.25	1.0990342594	1.70981764114	2.80885190054	0.732689506266	1.08195818253
0.251	1.09923700651	1.71018838128	2.80942538779	0.732824671009	1.08231834049
0.252	1.09943509753	1.71113841486	2.81057351239	0.732956731686	1.08300988426
0.253	1.09962779183	1.71094549253	2.81057328437	0.733085194554	1.08303772171
0.254	1.09981529712	1.71133220391	2.81114750104	0.733210198081	1.08339692266
0.255	1.09999888659	1.71114861463	2.81114750122	0.733332591057	1.08342387048
0.256	1.10017965926	1.71096784215	2.81114750141	0.733453106173	1.08345010327
0.257	1.10035742499	1.71021629851	2.8105737235	0.733571616659	1.08314417078
0.258	1.10053218359	1.71004154011	2.8105737237	0.733688122393	1.08316902279
0.259	1.10070224254	1.71044618145	2.811148424	0.733801495029	1.08352529638
0.26	1.1008676127	1.7102808115	2.8111484242	0.733911741801	1.0835491961
